 Al Density=2.699, Angle=90.deg
 Photon Energy (eV), Atten Length (microns)
   100.000  3.439041E-02
   102.893  3.380702E-02
   105.870  3.335955E-02
   108.932  3.297158E-02
   112.084  3.258784E-02
   115.326  3.220888E-02
   118.663  3.183413E-02
   122.095  3.146390E-02
   125.628  3.147640E-02
   129.262  3.226443E-02
   133.001  3.311349E-02
   136.849  3.398492E-02
   140.808  3.487924E-02
   144.881  3.579712E-02
   149.073  3.673913E-02
   153.385  3.788550E-02
   157.823  3.917092E-02
   162.389  4.050003E-02
   167.086  4.187419E-02
   171.920  4.329496E-02
   176.894  4.477789E-02
   182.011  4.720136E-02
   187.277  5.031604E-02
   192.694  5.363624E-02
   198.269  5.717547E-02
   204.005  6.097708E-02
   209.906  6.505801E-02
   215.979  6.941190E-02
   222.227  7.402667E-02
   228.656  7.845476E-02
   235.271  8.291959E-02
   242.077  8.763841E-02
   249.080  9.262585E-02
   256.286  9.789713E-02
   263.700  0.103468
   271.329  0.110285
   279.178  0.118503
   287.255  0.127333
   295.565  0.136822
   304.116  0.147018
   312.913  0.157973
   321.966  0.169744
   331.280  0.182393
   340.864  0.195985
   350.725  0.210588
   360.871  0.225939
   371.311  0.241166
   382.053  0.257292
   393.105  0.274497
   404.478  0.292852
   416.179  0.312436
   428.219  0.333328
   440.607  0.356391
   453.354  0.382443
   466.469  0.410410
   479.964  0.440425
   493.849  0.472689
   508.136  0.507924
   522.836  0.546306
   537.961  0.587394
   553.524  0.631531
   569.537  0.680183
   586.013  0.733574
   602.967  0.791361
   620.410  0.853732
   638.358  0.921953
   656.826  0.999011
   675.827  1.08147
   695.378  1.16305
   715.495  1.25159
   736.194  1.35128
   757.492  1.45892
   779.406  1.57562
   801.954  1.70285
   825.154  1.84064
   849.025  1.98961
   873.587  2.15097
   898.859  2.32559
   924.863  2.51439
   951.618  2.71915
   979.148  2.94061
   1007.47  3.17943
   1036.62  3.43223
   1066.61  3.71083
   1097.47  4.01490
   1129.21  4.34387
   1161.88  4.69974
   1195.49  5.08485
   1230.08  5.50149
   1265.67  5.94796
   1302.28  6.42470
   1339.95  6.93897
   1378.72  7.49440
   1418.60  8.09410
   1459.64  8.74385
   1501.87  9.46587
   1545.32  10.2890
   1590.02  0.930794
   1636.02  0.995679
   1683.35  1.06509
   1732.05  1.13969
   1782.16  1.22231
   1833.72  1.31206
   1886.76  1.40840
   1941.35  1.51181
   1997.51  1.62266
   2055.30  1.74226
   2114.75  1.87417
   2175.93  2.01701
   2238.88  2.17182
   2303.65  2.33956
   2370.29  2.52141
   2438.87  2.71845
   2509.42  2.93219
   2582.02  3.16382
   2656.71  3.41499
   2733.57  3.68740
   2812.65  3.98289
   2894.02  4.30338
   2977.74  4.65110
   3063.89  5.02833
   3152.52  5.43771
   3243.72  5.88191
   3337.56  6.36412
   3434.12  6.88745
   3533.47  7.45567
   3635.69  8.07258
   3740.86  8.74245
   3849.09  9.46976
   3960.44  10.2597
   4075.01  11.1179
   4192.90  12.0501
   4314.20  13.0626
   4439.01  14.1628
   4567.42  15.3585
   4699.56  16.6576
   4835.51  18.0696
   4975.40  19.6040
   5119.34  21.2719
   5267.44  23.0857
   5419.82  25.0568
   5576.61  27.2008
   5737.94  29.5305
   5903.94  32.0641
   6074.73  34.8208
   6250.47  37.8183
   6431.30  41.0788
   6617.35  44.6257
   6808.79  48.4836
   7005.76  52.6807
   7208.43  57.2468
   7416.97  62.2152
   7631.54  67.6217
   7852.32  73.5050
   8079.48  79.9065
   8313.22  86.8744
   8553.71  94.4588
   8801.17  102.713
   9055.78  111.698
   9317.76  121.479
   9587.31  132.124
   9864.67  143.713
   10150.1  156.331
   10443.7  170.071
   10745.8  185.028
   11056.7  201.316
   11376.6  219.052
   11705.7  238.360
   12044.3  259.384
   12392.7  282.277
   12751.3  307.199
   13120.1  334.332
   13499.7  363.875
   13890.2  396.034
   14292.1  431.044
   14705.5  469.150
   15131.0  510.632
   15568.7  555.814
   16019.1  604.987
   16482.5  658.493
   16959.3  716.712
   17450.0  780.045
   17954.8  848.915
   18474.2  923.802
   19008.7  1005.21
   19558.6  1093.66
   20124.4  1190.08
   20706.6  1294.48
   21305.6  1407.58
   21922.0  1530.01
   22556.2  1662.44
   23208.7  1805.54
   23880.1  1960.03
   24571.0  2126.63
   25281.8  2306.04
   26013.2  2499.05
   26765.7  2706.36
   27540.0  2928.70
   28336.8  3166.75
   29156.5  3421.15
   30000.0  3692.49
