 Au Density=19.32, Angle=90.deg
 Photon Energy (eV), Atten Length (microns)
   100.000  2.803463E-02
   102.893  3.088809E-02
   105.870  3.421047E-02
   108.932  3.763762E-02
   112.084  4.086951E-02
   115.326  4.435389E-02
   118.663  4.800271E-02
   122.095  5.179973E-02
   125.628  5.589708E-02
   129.262  6.104916E-02
   133.001  6.756082E-02
   136.849  7.221390E-02
   140.808  7.604793E-02
   144.881  7.950965E-02
   149.073  8.076727E-02
   153.385  8.170095E-02
   157.823  8.238356E-02
   162.389  8.010017E-02
   167.086  7.780358E-02
   171.920  7.450064E-02
   176.894  6.960995E-02
   182.011  6.504171E-02
   187.277  6.072731E-02
   192.694  5.667950E-02
   198.269  5.290892E-02
   204.005  4.957737E-02
   209.906  4.655871E-02
   215.979  4.403237E-02
   222.227  4.229574E-02
   228.656  4.062786E-02
   235.271  3.916486E-02
   242.077  3.802898E-02
   249.080  3.693833E-02
   256.286  3.607404E-02
   263.700  3.535555E-02
   271.329  3.465130E-02
   279.178  3.424220E-02
   287.255  3.403846E-02
   295.565  3.383587E-02
   304.116  3.363453E-02
   312.913  3.348768E-02
   321.966  3.347792E-02
   331.280  3.347798E-02
   340.864  3.347785E-02
   350.725  3.348132E-02
   360.871  3.379629E-02
   371.311  3.417304E-02
   382.053  3.455386E-02
   393.105  3.493903E-02
   404.478  3.539544E-02
   416.179  3.606655E-02
   428.219  3.677301E-02
   440.607  3.749341E-02
   453.354  3.825809E-02
   466.469  3.914726E-02
   479.964  4.006925E-02
   493.849  4.101302E-02
   508.136  4.197906E-02
   522.836  4.299412E-02
   537.961  4.404232E-02
   553.524  4.511602E-02
   569.537  4.622192E-02
   586.013  4.740883E-02
   602.967  4.862817E-02
   620.410  4.987886E-02
   638.358  5.116169E-02
   656.826  5.260843E-02
   675.827  5.448293E-02
   695.378  5.645086E-02
   715.495  5.848971E-02
   736.194  6.057868E-02
   757.492  6.271844E-02
   779.406  6.493378E-02
   801.954  6.727359E-02
   825.154  6.997011E-02
   849.025  7.277450E-02
   873.587  7.569993E-02
   898.859  7.930607E-02
   924.863  8.325280E-02
   951.618  8.739603E-02
   979.148  9.205663E-02
   1007.47  9.706652E-02
   1036.62  0.102478
   1066.61  0.109278
   1097.47  0.116755
   1129.21  0.124744
   1161.88  0.133283
   1195.49  0.142411
   1230.08  0.152037
   1265.67  0.161336
   1302.28  0.171165
   1339.95  0.182372
   1378.72  0.194826
   1418.60  0.208130
   1459.64  0.221047
   1501.87  0.235672
   1545.32  0.256006
   1590.02  0.275215
   1636.02  0.293893
   1683.35  0.316102
   1732.05  0.337650
   1782.16  0.359722
   1833.72  0.381913
   1886.76  0.405669
   1941.35  0.433330
   1997.51  0.464531
   2055.30  0.496295
   2114.75  0.533894
   2175.93  0.575531
   2238.88  0.420185
   2303.65  0.259432
   2370.29  0.193953
   2438.87  0.195577
   2509.42  0.203019
   2582.02  0.213739
   2656.71  0.221752
   2733.57  0.219383
   2812.65  0.215296
   2894.02  0.226392
   2977.74  0.240208
   3063.89  0.255079
   3152.52  0.266987
   3243.72  0.273908
   3337.56  0.291600
   3434.12  0.306780
   3533.47  0.323620
   3635.69  0.347301
   3740.86  0.371311
   3849.09  0.397326
   3960.44  0.425806
   4075.01  0.456578
   4192.90  0.491100
   4314.20  0.524950
   4439.01  0.562525
   4567.42  0.603349
   4699.56  0.647344
   4835.51  0.694288
   4975.40  0.743760
   5119.34  0.794507
   5267.44  0.848215
   5419.82  0.911099
   5576.61  0.978917
   5737.94  1.05061
   5903.94  1.12897
   6074.73  1.21102
   6250.47  1.30458
   6431.30  1.40471
   6617.35  1.51283
   6808.79  1.62956
   7005.76  1.75555
   7208.43  1.89160
   7416.97  2.03834
   7631.54  2.19674
   7852.32  2.36763
   8079.48  2.55186
   8313.22  2.75055
   8553.71  2.96487
   8801.17  3.19579
   9055.78  3.44443
   9317.76  3.71229
   9587.31  4.00084
   9864.67  4.31148
   10150.1  4.64558
   10443.7  5.00486
   10745.8  5.39107
   11056.7  5.80599
   11376.6  6.25167
   11705.7  6.73003
   12044.3  2.90986
   12392.7  3.14456
   12751.3  3.39817
   13120.1  3.67220
   13499.7  3.96834
   13890.2  3.07292
   14292.1  3.31566
   14705.5  3.09771
   15131.0  3.32451
   15568.7  3.56966
   16019.1  3.83471
   16482.5  4.12125
   16959.3  4.43101
   17450.0  4.76587
   17954.8  5.12786
   18474.2  5.51932
   19008.7  5.94257
   19558.6  6.40018
   20124.4  6.89494
   20706.6  7.43003
   21305.6  8.00865
   21922.0  8.63433
   22556.2  9.31093
   23208.7  10.0426
   23880.1  10.8339
   24571.0  11.6896
   25281.8  12.6150
   26013.2  13.6157
   26765.7  14.6979
   27540.0  15.8682
   28336.8  17.1336
   29156.5  18.5020
   30000.0  19.9814
