 cdte Density=8.65, Angle=90.deg
 Photon Energy (eV), Atten Length (microns)
   100.000  1.495865E-02
   102.893  1.634616E-02
   105.870  1.834329E-02
   108.932  2.171458E-02
   112.084  2.570052E-02
   115.326  3.110481E-02
   118.663  4.015348E-02
   122.095  5.221747E-02
   125.628  6.711136E-02
   129.262  8.370734E-02
   133.001  0.103673
   136.849  0.128007
   140.808  0.163836
   144.881  0.199922
   149.073  0.230939
   153.385  0.245846
   157.823  0.254230
   162.389  0.257509
   167.086  0.250412
   171.920  0.241001
   176.894  0.228912
   182.011  0.219803
   187.277  0.210721
   192.694  0.201965
   198.269  0.193671
   204.005  0.186893
   209.906  0.181516
   215.979  0.176325
   222.227  0.172101
   228.656  0.168994
   235.271  0.166542
   242.077  0.165068
   249.080  0.164282
   256.286  0.164141
   263.700  0.163991
   271.329  0.164666
   279.178  0.167327
   287.255  0.170270
   295.565  0.173253
   304.116  0.176276
   312.913  0.179460
   321.966  0.182912
   331.280  0.187543
   340.864  0.193079
   350.725  0.198623
   360.871  0.204270
   371.311  0.210034
   382.053  0.214481
   393.105  0.221439
   404.478  0.228445
   416.179  0.220805
   428.219  0.198276
   440.607  0.172785
   453.354  0.147267
   466.469  0.123175
   479.964  0.103651
   493.849  9.838077E-02
   508.136  0.100650
   522.836  0.103777
   537.961  0.108244
   553.524  0.112137
   569.537  0.111808
   586.013  5.984093E-02
   602.967  6.325743E-02
   620.410  6.687570E-02
   638.358  7.047287E-02
   656.826  7.342038E-02
   675.827  7.647917E-02
   695.378  7.985518E-02
   715.495  8.384677E-02
   736.194  8.803448E-02
   757.492  9.242404E-02
   779.406  9.671364E-02
   801.954  0.100685
   825.154  0.102511
   849.025  0.105180
   873.587  0.110608
   898.859  0.116603
   924.863  0.123104
   951.618  0.130099
   979.148  0.136586
   1007.47  0.143488
   1036.62  0.152452
   1066.61  0.162710
   1097.47  0.173693
   1129.21  0.185417
   1161.88  0.197931
   1195.49  0.211290
   1230.08  0.225552
   1265.67  0.240754
   1302.28  0.256959
   1339.95  0.274255
   1378.72  0.292712
   1418.60  0.312409
   1459.64  0.333435
   1501.87  0.355896
   1545.32  0.379897
   1590.02  0.405512
   1636.02  0.432862
   1683.35  0.462051
   1732.05  0.493342
   1782.16  0.527815
   1833.72  0.565150
   1886.76  0.605129
   1941.35  0.647922
   1997.51  0.693675
   2055.30  0.742888
   2114.75  0.796943
   2175.93  0.855364
   2238.88  0.918600
   2303.65  0.987060
   2370.29  1.06122
   2438.87  1.14167
   2509.42  1.22895
   2582.02  1.32372
   2656.71  1.42673
   2733.57  1.53889
   2812.65  1.66101
   2894.02  1.79417
   2977.74  1.93952
   3063.89  2.09844
   3152.52  2.27248
   3243.72  2.46315
   3337.56  2.67255
   3434.12  2.90283
   3533.47  3.15570
   3635.69  1.60083
   3740.86  1.36112
   3849.09  1.46570
   3960.44  1.57842
   4075.01  1.50719
   4192.90  1.61851
   4314.20  1.73855
   4439.01  1.24902
   4567.42  1.34327
   4699.56  1.23122
   4835.51  1.32499
   4975.40  1.32552
   5119.34  1.42302
   5267.44  1.52845
   5419.82  1.64246
   5576.61  1.76572
   5737.94  1.89905
   5903.94  2.04328
   6074.73  2.19926
   6250.47  2.36799
   6431.30  2.55047
   6617.35  2.74795
   6808.79  2.96153
   7005.76  3.19266
   7208.43  3.44271
   7416.97  3.71326
   7631.54  4.00609
   7852.32  4.32288
   8079.48  4.66580
   8313.22  5.03685
   8553.71  5.43849
   8801.17  5.87313
   9055.78  6.34349
   9317.76  6.85282
   9587.31  7.40378
   9864.67  8.00078
   10150.1  8.64676
   10443.7  9.34586
   10745.8  10.1026
   11056.7  10.9218
   11376.6  11.8087
   11705.7  12.7687
   12044.3  13.8079
   12392.7  14.9328
   12751.3  16.1505
   13120.1  17.4685
   13499.7  18.8954
   13890.2  20.4398
   14292.1  22.1115
   14705.5  23.9209
   15131.0  25.8792
   15568.7  27.9992
   16019.1  30.2933
   16482.5  32.7761
   16959.3  35.4631
   17450.0  38.3708
   17954.8  41.5169
   18474.2  44.9211
   19008.7  48.6044
   19558.6  52.5892
   20124.4  56.8999
   20706.6  61.5640
   21305.6  66.6086
   21922.0  72.0646
   22556.2  77.9654
   23208.7  84.3463
   23880.1  91.2451
   24571.0  98.7046
   25281.8  106.767
   26013.2  115.483
   26765.7  39.3734
   27540.0  42.4059
   28336.8  45.6845
   29156.5  49.2297
   30000.0  53.0632
