 Ni Density=8.902, Angle=90.deg
 Photon Energy (eV), Atten Length (microns)
   100.000  1.600504E-02
   102.893  1.642896E-02
   105.870  1.686409E-02
   108.932  1.732846E-02
   112.084  1.783414E-02
   115.326  1.835538E-02
   118.663  1.889185E-02
   122.095  1.946439E-02
   125.628  2.008423E-02
   129.262  2.072419E-02
   133.001  2.138451E-02
   136.849  2.188463E-02
   140.808  2.224885E-02
   144.881  2.261919E-02
   149.073  2.299552E-02
   153.385  2.337831E-02
   157.823  2.378921E-02
   162.389  2.459659E-02
   167.086  2.544274E-02
   171.920  2.631796E-02
   176.894  2.722322E-02
   182.011  2.815975E-02
   187.277  2.912846E-02
   192.694  3.013051E-02
   198.269  3.116698E-02
   204.005  3.223918E-02
   209.906  3.370531E-02
   215.979  3.528900E-02
   222.227  3.694718E-02
   228.656  3.868314E-02
   235.271  4.050079E-02
   242.077  4.240376E-02
   249.080  4.439624E-02
   256.286  4.648224E-02
   263.700  4.866632E-02
   271.329  5.095305E-02
   279.178  5.334719E-02
   287.255  5.601862E-02
   295.565  5.927960E-02
   304.116  6.273051E-02
   312.913  6.638213E-02
   321.966  7.024649E-02
   331.280  7.433566E-02
   340.864  7.866305E-02
   350.725  8.324213E-02
   360.871  8.808791E-02
   371.311  9.326541E-02
   382.053  9.910032E-02
   393.105  0.105347
   404.478  0.111987
   416.179  0.119046
   428.219  0.126550
   440.607  0.134527
   453.354  0.143006
   466.469  0.152020
   479.964  0.161602
   493.849  0.171800
   508.136  0.183723
   522.836  0.197256
   537.961  0.211784
   553.524  0.227384
   569.537  0.244132
   586.013  0.262113
   602.967  0.281420
   620.410  0.300487
   638.358  0.319638
   656.826  0.340008
   675.827  0.361677
   695.378  0.384728
   715.495  0.409928
   736.194  0.451448
   757.492  0.492128
   779.406  0.523037
   801.954  0.554136
   825.154  0.586286
   849.025  0.620292
   873.587  8.246059E-02
   898.859  8.826020E-02
   924.863  9.445318E-02
   951.618  0.100981
   979.148  0.107175
   1007.47  0.105964
   1036.62  0.109185
   1066.61  0.116915
   1097.47  0.125233
   1129.21  0.134146
   1161.88  0.143690
   1195.49  0.153915
   1230.08  0.164867
   1265.67  0.176678
   1302.28  0.189451
   1339.95  0.203165
   1378.72  0.217872
   1418.60  0.233643
   1459.64  0.250577
   1501.87  0.268962
   1545.32  0.289146
   1590.02  0.310867
   1636.02  0.334229
   1683.35  0.359343
   1732.05  0.386378
   1782.16  0.415816
   1833.72  0.447637
   1886.76  0.481894
   1941.35  0.518763
   1997.51  0.558432
   2055.30  0.601110
   2114.75  0.647489
   2175.93  0.697547
   2238.88  0.751566
   2303.65  0.809910
   2370.29  0.872855
   2438.87  0.940791
   2509.42  1.01415
   2582.02  1.09333
   2656.71  1.17881
   2733.57  1.27109
   2812.65  1.37074
   2894.02  1.47832
   2977.74  1.59449
   3063.89  1.71991
   3152.52  1.85539
   3243.72  2.00170
   3337.56  2.15969
   3434.12  2.33040
   3533.47  2.51478
   3635.69  2.71395
   3740.86  2.92919
   3849.09  3.16170
   3960.44  3.41299
   4075.01  3.68463
   4192.90  3.97828
   4314.20  4.29568
   4439.01  4.63892
   4567.42  5.01023
   4699.56  5.41186
   4835.51  5.84635
   4975.40  6.31653
   5119.34  6.82556
   5267.44  7.37670
   5419.82  7.97367
   5576.61  8.61997
   5737.94  9.32095
   5903.94  10.0804
   6074.73  10.9043
   6250.47  11.7982
   6431.30  12.7681
   6617.35  13.8217
   6808.79  14.9662
   7005.76  16.2102
   7208.43  17.5633
   7416.97  19.0356
   7631.54  20.6396
   7852.32  22.3871
   8079.48  24.2932
   8313.22  26.3714
   8553.71  3.62632
   8801.17  3.89186
   9055.78  4.17937
   9317.76  4.49096
   9587.31  4.82849
   9864.67  5.19420
   10150.1  5.59048
   10443.7  6.01998
   10745.8  6.48542
   11056.7  6.99007
   11376.6  7.53720
   11705.7  8.13031
   12044.3  8.77337
   12392.7  9.47079
   12751.3  10.2272
   13120.1  11.0475
   13499.7  11.9375
   13890.2  12.9029
   14292.1  13.9505
   14705.5  15.0873
   15131.0  16.3209
   15568.7  17.6599
   16019.1  19.1133
   16482.5  20.6910
   16959.3  22.4038
   17450.0  24.2634
   17954.8  26.2823
   18474.2  28.4745
   19008.7  30.8554
   19558.6  33.4408
   20124.4  36.2484
   20706.6  39.2984
   21305.6  42.6111
   21922.0  46.2091
   22556.2  50.1172
   23208.7  54.3620
   23880.1  58.9729
   24571.0  63.9814
   25281.8  69.4208
   26013.2  75.3289
   26765.7  81.7460
   27540.0  88.7147
   28336.8  96.2821
   29156.5  104.499
   30000.0  113.420
