 C22H10N2O5 Density=1.43, Angle=90.deg
 Photon Energy (eV), Atten Length (microns)
   100.000  0.202360
   102.893  0.215217
   105.870  0.228892
   108.932  0.243434
   112.084  0.258898
   115.326  0.275343
   118.663  0.292830
   122.095  0.311426
   125.628  0.331202
   129.262  0.352238
   133.001  0.374779
   136.849  0.399287
   140.808  0.425241
   144.881  0.452873
   149.073  0.482298
   153.385  0.513632
   157.823  0.546991
   162.389  0.582624
   167.086  0.620857
   171.920  0.661630
   176.894  0.705070
   182.011  0.752317
   187.277  0.810284
   192.694  0.876992
   198.269  0.949205
   204.005  1.02736
   209.906  1.11195
   215.979  1.20348
   222.227  1.30165
   228.656  1.40602
   235.271  1.51875
   242.077  1.63698
   249.080  1.76632
   256.286  1.91910
   263.700  2.08479
   271.329  2.26441
   279.178  2.45974
   287.255  0.192737
   295.565  0.205402
   304.116  0.218900
   312.913  0.233288
   321.966  0.248643
   331.280  0.265007
   340.864  0.282449
   350.725  0.301034
   360.871  0.320841
   371.311  0.341948
   382.053  0.365408
   393.105  0.392224
   404.478  0.421016
   416.179  0.398065
   428.219  0.426991
   440.607  0.458019
   453.354  0.491298
   466.469  0.526991
   479.964  0.565281
   493.849  0.606796
   508.136  0.651670
   522.836  0.699857
   537.961  0.751607
   553.524  0.550210
   569.537  0.590761
   586.013  0.634270
   602.967  0.680900
   620.410  0.730959
   638.358  0.785030
   656.826  0.844265
   675.827  0.907445
   695.378  0.971772
   715.495  1.04299
   736.194  1.12446
   757.492  1.21227
   779.406  1.30748
   801.954  1.41150
   825.154  1.52403
   849.025  1.64520
   873.587  1.77473
   898.859  1.91385
   924.863  2.06408
   951.618  2.22961
   979.148  2.40960
   1007.47  2.60404
   1036.62  2.81345
   1066.61  3.04262
   1097.47  3.29153
   1129.21  3.56092
   1161.88  3.85219
   1195.49  4.16730
   1230.08  4.50821
   1265.67  4.87994
   1302.28  5.28673
   1339.95  5.72792
   1378.72  6.20593
   1418.60  6.72379
   1459.64  7.28506
   1501.87  7.89583
   1545.32  8.56312
   1590.02  9.28699
   1636.02  10.0722
   1683.35  10.9237
   1732.05  11.8481
   1782.16  12.8589
   1833.72  13.9591
   1886.76  15.1533
   1941.35  16.4496
   1997.51  17.8558
   2055.30  19.3813
   2114.75  21.0500
   2175.93  22.8654
   2238.88  24.8410
   2303.65  26.9909
   2370.29  29.3317
   2438.87  31.8797
   2509.42  34.6542
   2582.02  37.6756
   2656.71  40.9665
   2733.57  44.5533
   2812.65  48.4598
   2894.02  52.7193
   2977.74  57.3619
   3063.89  62.4244
   3152.52  67.9472
   3243.72  73.9719
   3337.56  80.5465
   3434.12  87.7215
   3533.47  95.5581
   3635.69  104.119
   3740.86  113.472
   3849.09  123.695
   3960.44  134.873
   4075.01  147.077
   4192.90  160.431
   4314.20  175.017
   4439.01  190.949
   4567.42  208.359
   4699.56  227.383
   4835.51  248.169
   4975.40  270.881
   5119.34  295.712
   5267.44  322.845
   5419.82  352.513
   5576.61  384.942
   5737.94  420.374
   5903.94  459.130
   6074.73  501.490
   6250.47  547.810
   6431.30  598.438
   6617.35  653.800
   6808.79  714.305
   7005.76  780.434
   7208.43  852.712
   7416.97  931.675
   7631.54  1017.97
   7852.32  1112.22
   8079.48  1215.15
   8313.22  1327.59
   8553.71  1450.35
   8801.17  1584.28
   9055.78  1730.37
   9317.76  1889.60
   9587.31  2063.07
   9864.67  2251.99
   10150.1  2457.65
   10443.7  2681.43
   10745.8  2924.54
   11056.7  3188.46
   11376.6  3474.66
   11705.7  3784.55
   12044.3  4119.68
   12392.7  4481.58
   12751.3  4871.70
   13120.1  5291.41
   13499.7  5742.16
   13890.2  6225.05
   14292.1  6741.24
   14705.5  7291.43
   15131.0  7877.13
   15568.7  8500.63
   16019.1  9160.02
   16482.5  9854.94
   16959.3  10584.7
   17450.0  11348.2
   17954.8  12143.3
   18474.2  12967.8
   19008.7  13819.0
   19558.6  14693.2
   20124.4  15558.7
   20706.6  16499.9
   21305.6  17456.9
   21922.0  18425.5
   22556.2  19401.0
   23208.7  20378.7
   23880.1  21353.7
   24571.0  22321.2
   25281.8  23276.5
   26013.2  24215.2
   26765.7  25133.0
   27540.0  26025.9
   28336.8  26890.4
   29156.5  27723.5
   30000.0  28522.5
