 Pt Density=21.45, Angle=90.deg
 Photon Energy (eV), Atten Length (microns)
   100.000  2.607957E-02
   102.893  2.887670E-02
   105.870  3.273422E-02
   108.932  3.694190E-02
   112.084  4.169083E-02
   115.326  4.657896E-02
   118.663  5.036651E-02
   122.095  5.338357E-02
   125.628  5.585713E-02
   129.262  5.765434E-02
   133.001  5.886909E-02
   136.849  5.993575E-02
   140.808  6.019876E-02
   144.881  5.862726E-02
   149.073  5.624064E-02
   153.385  5.453588E-02
   157.823  5.344044E-02
   162.389  5.172380E-02
   167.086  4.909267E-02
   171.920  4.624284E-02
   176.894  4.354492E-02
   182.011  4.090999E-02
   187.277  3.885602E-02
   192.694  3.736196E-02
   198.269  3.609227E-02
   204.005  3.498598E-02
   209.906  3.459428E-02
   215.979  3.406320E-02
   222.227  3.309713E-02
   228.656  3.190891E-02
   235.271  3.085439E-02
   242.077  3.025571E-02
   249.080  3.004466E-02
   256.286  2.971878E-02
   263.700  2.949122E-02
   271.329  2.970252E-02
   279.178  2.977157E-02
   287.255  2.979101E-02
   295.565  2.980601E-02
   304.116  2.969008E-02
   312.913  2.935068E-02
   321.966  2.912092E-02
   331.280  2.906759E-02
   340.864  2.937341E-02
   350.725  2.923852E-02
   360.871  2.943556E-02
   371.311  2.980469E-02
   382.053  3.011592E-02
   393.105  3.058910E-02
   404.478  3.123201E-02
   416.179  3.209189E-02
   428.219  3.267240E-02
   440.607  3.322046E-02
   453.354  3.396227E-02
   466.469  3.467775E-02
   479.964  3.566681E-02
   493.849  3.687943E-02
   508.136  3.771417E-02
   522.836  3.683136E-02
   537.961  3.833555E-02
   553.524  3.954371E-02
   569.537  4.155990E-02
   586.013  4.304777E-02
   602.967  4.441902E-02
   620.410  4.530904E-02
   638.358  4.716224E-02
   656.826  4.912870E-02
   675.827  5.117704E-02
   695.378  5.328883E-02
   715.495  5.506430E-02
   736.194  5.637732E-02
   757.492  5.881584E-02
   779.406  6.198942E-02
   801.954  6.511863E-02
   825.154  6.840576E-02
   849.025  7.191994E-02
   873.587  7.569053E-02
   898.859  7.965886E-02
   924.863  8.385252E-02
   951.618  8.846634E-02
   979.148  9.333406E-02
   1007.47  9.846900E-02
   1036.62  0.104139
   1066.61  0.110245
   1097.47  0.116708
   1129.21  0.123551
   1161.88  0.130793
   1195.49  0.138462
   1230.08  0.146579
   1265.67  0.155301
   1302.28  0.164749
   1339.95  0.174772
   1378.72  0.185405
   1418.60  0.196684
   1459.64  0.208649
   1501.87  0.221425
   1545.32  0.235312
   1590.02  0.250069
   1636.02  0.265754
   1683.35  0.282421
   1732.05  0.300134
   1782.16  0.319340
   1833.72  0.340069
   1886.76  0.362144
   1941.35  0.385651
   1997.51  0.410681
   2055.30  0.437405
   2114.75  0.466687
   2175.93  0.177421
   2238.88  0.128578
   2303.65  0.137832
   2370.29  0.147752
   2438.87  0.158384
   2509.42  0.169783
   2582.02  0.182001
   2656.71  0.168623
   2733.57  0.180903
   2812.65  0.194078
   2894.02  0.208212
   2977.74  0.223376
   3063.89  0.225592
   3152.52  0.241779
   3243.72  0.259127
   3337.56  0.266132
   3434.12  0.285054
   3533.47  0.305321
   3635.69  0.327030
   3740.86  0.350379
   3849.09  0.375445
   3960.44  0.402493
   4075.01  0.431744
   4192.90  0.463118
   4314.20  0.496774
   4439.01  0.532893
   4567.42  0.572088
   4699.56  0.613867
   4835.51  0.658600
   4975.40  0.708539
   5119.34  0.761525
   5267.44  0.816338
   5419.82  0.879094
   5576.61  0.942372
   5737.94  1.01219
   5903.94  1.08890
   6074.73  1.17468
   6250.47  1.26009
   6431.30  1.35824
   6617.35  1.45824
   6808.79  1.56594
   7005.76  1.68496
   7208.43  1.81301
   7416.97  1.94982
   7631.54  2.09652
   7852.32  2.25530
   8079.48  2.42611
   8313.22  2.61072
   8553.71  2.80772
   8801.17  3.02043
   9055.78  3.25796
   9317.76  3.50597
   9587.31  3.77286
   9864.67  4.05781
   10150.1  4.37594
   10443.7  4.73968
   10745.8  5.12855
   11056.7  5.53525
   11376.6  5.98369
   11705.7  2.47355
   12044.3  2.67909
   12392.7  2.89787
   12751.3  3.14312
   13120.1  3.40021
   13499.7  2.63303
   13890.2  2.51897
   14292.1  2.69599
   14705.5  2.90705
   15131.0  3.12413
   15568.7  3.36078
   16019.1  3.62130
   16482.5  3.90199
   16959.3  4.20442
   17450.0  4.53028
   17954.8  4.88138
   18474.2  5.25965
   19008.7  5.66719
   19558.6  6.10629
   20124.4  6.57913
   20706.6  7.08642
   21305.6  7.63259
   21922.0  8.22082
   22556.2  8.85425
   23208.7  9.53789
   23880.1  10.2773
   24571.0  11.0735
   25281.8  11.9189
   26013.2  12.8282
   26765.7  13.8474
   27540.0  14.9698
   28336.8  16.1828
   29156.5  17.4938
   30000.0  18.9104
