 Si Density=2.33, Angle=90.deg
 Photon Energy (eV), Atten Length (microns)
   100.000  0.134287
   102.893  8.023261E-02
   105.870  7.745777E-02
   108.932  6.279261E-02
   112.084  5.577233E-02
   115.326  4.966620E-02
   118.663  4.290119E-02
   122.095  4.102796E-02
   125.628  4.064336E-02
   129.262  3.980964E-02
   133.001  3.884881E-02
   136.849  4.291117E-02
   140.808  4.389932E-02
   144.881  4.411837E-02
   149.073  4.395323E-02
   153.385  4.400524E-02
   157.823  4.592049E-02
   162.389  4.436820E-02
   167.086  4.431265E-02
   171.920  4.653730E-02
   176.894  5.237299E-02
   182.011  5.520609E-02
   187.277  5.763708E-02
   192.694  6.027577E-02
   198.269  6.307083E-02
   204.005  6.592548E-02
   209.906  6.873458E-02
   215.979  7.165238E-02
   222.227  7.482360E-02
   228.656  7.881930E-02
   235.271  8.302872E-02
   242.077  8.746246E-02
   249.080  9.218471E-02
   256.286  9.753232E-02
   263.700  0.103219
   271.329  0.109237
   279.178  0.115606
   287.255  0.122346
   295.565  0.129479
   304.116  0.137298
   312.913  0.145711
   321.966  0.154640
   331.280  0.164116
   340.864  0.174172
   350.725  0.184845
   360.871  0.196172
   371.311  0.209148
   382.053  0.223931
   393.105  0.239759
   404.478  0.256706
   416.179  0.274851
   428.219  0.294279
   440.607  0.315079
   453.354  0.337350
   466.469  0.361561
   479.964  0.388383
   493.849  0.417195
   508.136  0.448146
   522.836  0.481392
   537.961  0.517104
   553.524  0.555467
   569.537  0.596675
   586.013  0.641485
   602.967  0.691782
   620.410  0.746328
   638.358  0.805174
   656.826  0.868657
   675.827  0.937148
   695.378  1.01061
   715.495  1.08585
   736.194  1.16589
   757.492  1.25184
   779.406  1.34413
   801.954  1.44499
   825.154  1.55993
   849.025  1.68402
   873.587  1.81798
   898.859  1.96370
   924.863  2.13191
   951.618  2.31702
   979.148  2.51820
   1007.47  2.73707
   1036.62  2.97530
   1066.61  3.23427
   1097.47  3.50958
   1129.21  3.78714
   1161.88  4.08444
   1195.49  4.40517
   1230.08  4.75210
   1265.67  5.12664
   1302.28  5.53119
   1339.95  5.97005
   1378.72  6.44404
   1418.60  6.95731
   1459.64  7.51294
   1501.87  8.11583
   1545.32  8.78572
   1590.02  9.51287
   1636.02  10.3002
   1683.35  11.1528
   1732.05  12.0777
   1782.16  13.1109
   1833.72  14.2418
   1886.76  1.34722
   1941.35  1.44237
   1997.51  1.54437
   2055.30  1.65424
   2114.75  1.77371
   2175.93  1.90387
   2238.88  2.04492
   2303.65  2.19761
   2370.29  2.36300
   2438.87  2.54231
   2509.42  2.73663
   2582.02  2.94705
   2656.71  3.17515
   2733.57  3.42242
   2812.65  3.69040
   2894.02  3.98096
   2977.74  4.29607
   3063.89  4.63760
   3152.52  5.00800
   3243.72  5.40992
   3337.56  5.84576
   3434.12  6.31867
   3533.47  6.83174
   3635.69  7.38849
   3740.86  7.99268
   3849.09  8.64861
   3960.44  9.36044
   4075.01  10.1332
   4192.90  10.9725
   4314.20  11.8835
   4439.01  12.8728
   4567.42  13.9475
   4699.56  15.1150
   4835.51  16.3830
   4975.40  17.7602
   5119.34  19.2572
   5267.44  20.8833
   5419.82  22.6504
   5576.61  24.5712
   5737.94  26.6589
   5903.94  28.9275
   6074.73  31.3949
   6250.47  34.0761
   6431.30  36.9930
   6617.35  40.1619
   6808.79  43.6100
   7005.76  47.3589
   7208.43  51.4363
   7416.97  55.8715
   7631.54  60.6954
   7852.32  65.9431
   8079.48  71.6519
   8313.22  77.8620
   8553.71  84.6194
   8801.17  91.9726
   9055.78  99.9723
   9317.76  108.678
   9587.31  118.152
   9864.67  128.464
   10150.1  139.686
   10443.7  151.901
   10745.8  165.196
   11056.7  179.669
   11376.6  195.423
   11705.7  212.572
   12044.3  231.241
   12392.7  251.559
   12751.3  273.682
   13120.1  297.761
   13499.7  323.974
   13890.2  352.503
   14292.1  383.559
   14705.5  417.364
   15131.0  454.160
   15568.7  494.221
   16019.1  537.831
   16482.5  585.291
   16959.3  636.928
   17450.0  693.110
   17954.8  754.222
   18474.2  820.693
   19008.7  892.981
   19558.6  971.556
   20124.4  1057.00
   20706.6  1149.85
   21305.6  1250.58
   21922.0  1359.78
   22556.2  1478.11
   23208.7  1606.23
   23880.1  1744.85
   24571.0  1894.70
   25281.8  2056.54
   26013.2  2231.16
   26765.7  2419.35
   27540.0  2621.93
   28336.8  2839.71
   29156.5  3073.48
   30000.0  3324.03
