 C10H8O4 Density=1.4, Angle=90.deg
 Photon Energy (eV), Atten Length (microns)
   100.000  0.186300
   102.893  0.198178
   105.870  0.210812
   108.932  0.224247
   112.084  0.238539
   115.326  0.253738
   118.663  0.269903
   122.095  0.287096
   125.628  0.305383
   129.262  0.324838
   133.001  0.345621
   136.849  0.367991
   140.808  0.391604
   144.881  0.416722
   149.073  0.443448
   153.385  0.471883
   157.823  0.502132
   162.389  0.534318
   167.086  0.568556
   171.920  0.604990
   176.894  0.643751
   182.011  0.686245
   187.277  0.740344
   192.694  0.802155
   198.269  0.869139
   204.005  0.941719
   209.906  1.02035
   215.979  1.10555
   222.227  1.19715
   228.656  1.29480
   235.271  1.40041
   242.077  1.50995
   249.080  1.62697
   256.286  1.76294
   263.700  1.90998
   271.329  2.06896
   279.178  2.24159
   287.255  0.213952
   295.565  0.228038
   304.116  0.243051
   312.913  0.259050
   321.966  0.276103
   331.280  0.294276
   340.864  0.313646
   350.725  0.334288
   360.871  0.356287
   371.311  0.379735
   382.053  0.405780
   393.105  0.435527
   404.478  0.467471
   416.179  0.501762
   428.219  0.538566
   440.607  0.578071
   453.354  0.620471
   466.469  0.665975
   479.964  0.714822
   493.849  0.767882
   508.136  0.825322
   522.836  0.887059
   537.961  0.953414
   553.524  0.532632
   569.537  0.571905
   586.013  0.613655
   602.967  0.658321
   620.410  0.706243
   638.358  0.758134
   656.826  0.815532
   675.827  0.876702
   695.378  0.938181
   715.495  1.00616
   736.194  1.08406
   757.492  1.16798
   779.406  1.25895
   801.954  1.35853
   825.154  1.46628
   849.025  1.58210
   873.587  1.70513
   898.859  1.83682
   924.863  1.97896
   951.618  2.13651
   979.148  2.30810
   1007.47  2.49338
   1036.62  2.69262
   1066.61  2.91036
   1097.47  3.14670
   1129.21  3.40232
   1161.88  3.67854
   1195.49  3.97724
   1230.08  4.30019
   1265.67  4.65187
   1302.28  5.03615
   1339.95  5.45258
   1378.72  5.90340
   1418.60  6.39149
   1459.64  6.92012
   1501.87  7.49540
   1545.32  8.12424
   1590.02  8.80606
   1636.02  9.54522
   1683.35  10.3464
   1732.05  11.2157
   1782.16  12.1657
   1833.72  13.1991
   1886.76  14.3201
   1941.35  15.5363
   1997.51  16.8549
   2055.30  18.2844
   2114.75  19.8474
   2175.93  21.5469
   2238.88  23.3953
   2303.65  25.4058
   2370.29  27.5936
   2438.87  29.9740
   2509.42  32.5645
   2582.02  35.3843
   2656.71  38.4542
   2733.57  41.7985
   2812.65  45.4396
   2894.02  49.4078
   2977.74  53.7317
   3063.89  58.4445
   3152.52  63.5846
   3243.72  69.1905
   3337.56  75.3061
   3434.12  81.9788
   3533.47  89.2657
   3635.69  97.2260
   3740.86  105.922
   3849.09  115.427
   3960.44  125.820
   4075.01  137.174
   4192.90  149.589
   4314.20  163.147
   4439.01  177.954
   4567.42  194.129
   4699.56  211.801
   4835.51  231.105
   4975.40  252.194
   5119.34  275.246
   5267.44  300.430
   5419.82  327.960
   5576.61  358.046
   5737.94  390.914
   5903.94  426.856
   6074.73  466.135
   6250.47  509.079
   6431.30  556.008
   6617.35  607.321
   6808.79  663.390
   7005.76  724.665
   7208.43  791.630
   7416.97  864.779
   7631.54  944.721
   7852.32  1032.03
   8079.48  1127.37
   8313.22  1231.52
   8553.71  1345.25
   8801.17  1469.33
   9055.78  1604.68
   9317.76  1752.25
   9587.31  1913.04
   9864.67  2088.20
   10150.1  2278.96
   10443.7  2486.60
   10745.8  2712.30
   11056.7  2957.45
   11376.6  3223.48
   11705.7  3511.77
   12044.3  3823.82
   12392.7  4161.14
   12751.3  4525.18
   13120.1  4917.37
   13499.7  5339.18
   13890.2  5791.82
   14292.1  6276.56
   14705.5  6794.31
   15131.0  7346.64
   15568.7  7935.88
   16019.1  8560.67
   16482.5  9221.01
   16959.3  9916.63
   17450.0  10646.7
   17954.8  11409.9
   18474.2  12204.3
   19008.7  13027.8
   19558.6  13877.3
   20124.4  14727.2
   20706.6  15645.6
   21305.6  16583.7
   21922.0  17537.4
   22556.2  18502.8
   23208.7  19475.1
   23880.1  20449.8
   24571.0  21422.0
   25281.8  22387.1
   26013.2  23340.5
   26765.7  24277.8
   27540.0  25194.6
   28336.8  26087.1
   29156.5  26952.0
   30000.0  27786.0
